1136
1136
1136
1136
1137
1137
1137
1137
1138
1138
1138
1138
1139
1139
1139
1139
1140
1140
1140
1140
1141
1141
1141
1141
1142
1142
1142
1142
1143
1143
1143
1143
1144
1144
1144
1144
1145
1145
1145
1145
1146
1146
1146
1146
1147
1147
1147
1147
1148
1148
1148
1148
1149
1149
1149
1149
1150
1150
1150
1150
1151
1151
1151
1151
1152
1152
1152
1152
1153
1153
1153
1153
1154
1154
1154
1154
1155
1155
1155
1155
1156
1156
1156
1156
1156
1157
1157
1157
1157
1158
1158
1158
1158
1159
1159
1159
1159
1160
1160
1160
1160
1161
1161
1161
1161
1161
1162
1162
1162
1162
1163
1163
1163
1163
1164
1164
1164
1164
1165
1165
1165
1165
1165
1166
1166
1166
1166
1167
1167
1167
1167
1168
1168
1168
1168
1168
1169
1169
1169
1169
1170
1170
1170
1170
1170
1171
1171
1171
1171
1172
1172
1172
1172
1173
1173
1173
1173
1173
1174
1174
1174
1174
1175
1175
1175
1175
1175
1176
1176
1176
1176
1177
1177
1177
1177
1177
1178
1178
1178
1178
1179
1179
1179
1179
1179
1180
1180
1180
1180
1180
1181
1181
1181
1181
1182
1182
1182
1182
1182
1183
1183
1183
1183
1183
1184
1184
1184
1184
1185
1185
1185
1185
1185
1186
1186
1186
1186
1186
1187
1187
1187
1187
1187
1188
1188
1188
1188
1189
1189
1189
1189
1189
1190
1190
1190
1190
1190
1191
1191
1191
1191
1191
1192
1192
1192
1192
1192
1193
1193
1193
1193
1193
1194
1194
1194
1194
1194
1195
1195
1195
1195
1195
1196
1196
1196
1196
1196
1197
1197
1197
1197
1197
1198
1198
1198
1198
1198
1199
1199
1199
1199
1199
1200
1200
1200
1200
1200
1201
1201
1201
1201
1201
1202
1202
1202
1202
1202
1202
1203
1203
1203
1203
1203
1204
1204
1204
1204
1204
1205
1205
1205
1205
1205
1205
1206
1206
1206
1206
1206
1207
1207
1207
1207
1207
1208
1208
1208
1208
1208
1208
1209
1209
1209
1209
1209
1210
1210
1210
1210
1210
1210
1211
1211
1211
1211
1211
1212
1212
1212
1212
1212
1212
1213
1213
1213
1213
1213
1213
1214
1214
1214
1214
1214
1215
1215
1215
1215
1215
1215
1216
1216
1216
1216
1216
1216
1217
1217
1217
1217
1217
1217
1218
1218
1218
1218
1218
1218
1219
1219
1219
1219
1219
1219
1220
1220
1220
1220
1220
1220
1221
1221
1221
1221
1221
1221
1222
1222
1222
1222
1222
1222
1223
1223
1223
1223
1223
1223
1224
1224
1224
1224
1224
1224
1224
1225
1225
1225
1225
1225
1225
1226
1226
1226
1226
1226
1226
1227
1227
1227
1227
1227
1227
1227
1228
1228
1228
1228
1228
1228
1229
1229
1229
1229
1229
1229
1229
1230
1230
1230
1230
1230
1230
1230
1231
1231
1231
1231
1231
1231
1232
1232
1232
1232
1232
1232
1232
1233
1233
1233
1233
1233
1233
1233
1234
1234
1234
1234
1234
1234
1234
1235
1235
1235
1235
1235
1235
1235
1236
1236
1236
1236
1236
1236
1236
1236
1237
1237
1237
1237
1237
1237
1237
1238
1238
1238
1238
1238
1238
1238
1239
1239
1239
1239
1239
1239
1239
1239
1240
1240
1240
1240
1240
1240
1240
1241
1241
1241
1241
1241
1241
1241
1241
1242
1242
1242
1242
1242
1242
1242
1242
1243
1243
1243
1243
1243
1243
1243
1243
1244
1244
1244
1244
1244
1244
1244
1244
1245
1245
1245
1245
1245
1245
1245
1245
1245
1246
1246
1246
1246
1246
1246
1246
1246
1247
1247
1247
1247
1247
1247
1247
1247
1247
1248
1248
1248
1248
1248
1248
1248
1248
1248
1249
1249
1249
1249
1249
1249
1249
1249
1249
1250
1250
1250
1250
1250
1250
1250
1250
1250
1251
1251
1251
1251
1251
1251
1251
1251
1251
1251
1252
1252
1252
1252
1252
1252
1252
1252
1252
1253
1253
1253
1253
1253
1253
1253
1253
1253
1253
1254
1254
1254
1254
1254
1254
1254
1254
1254
1254
1255
1255
1255
1255
1255
1255
1255
1255
1255
1255
1255
1256
1256
1256
1256
1256
1256
1256
1256
1256
1256
1256
1257
1257
1257
1257
1257
1257
1257
1257
1257
1257
1257
1258
1258
1258
1258
1258
1258
1258
1258
1258
1258
1258
1258
1259
1259
1259
1259
1259
1259
1259
1259
1259
1259
1259
1259
1260
1260
1260
1260
1260
1260
1260
1260
1260
1260
1260
1260
1260
1261
1261
1261
1261
1261
1261
1261
1261
1261
1261
1261
1261
1261
1262
1262
1262
1262
1262
1262
1262
1262
1262
1262
1262
1262
1262
1262
1263
1263
1263
1263
1263
1263
1263
1263
1263
1263
1263
1263
1263
1263
1264
1264
1264
1264
1264
1264
1264
1264
1264
1264
1264
1264
1264
1264
1264
1264
1265
1265
1265
1265
1265
1265
1265
1265
1265
1265
1265
1265
1265
1265
1265
1265
1265
1266
1266
1266
1266
1266
1266
1266
1266
1266
1266
1266
1266
1266
1266
1266
1266
1266
1266
1267
1267
1267
1267
1267
1267
1267
1267
1267
1267
1267
1267
1267
1267
1267
1267
1267
1267
1267
1267
1268
1268
1268
1268
1268
1268
1268
1268
1268
1268
1268
1268
1268
1268
1268
1268
1268
1268
1268
1268
1268
1268
1268
1269
1269
1269
1269
1269
1269
1269
1269
1269
1269
1269
1269
1269
1269
1269
1269
1269
1269
1269
1269
1269
1269
1269
1269
1269
1269
1269
1270
1270
1270
1270
1270
1270
1270
1270
1270
1270
1270
1270
1270
1270
1270
1270
1270
1270
1270
1270
1270
1270
1270
1270
1270
1270
1270
1270
1270
1270
1270
1270
1270
1270
1271
1271
1271
1271
1271
1271
1271
1271
1271
1271
1271
1271
1271
1271
1271
1271
1271
1271
1271
1271
1271
1271
1271
1271
1271
1271
1271
1271
1271
1271
1271
1271
1271
1271
1271
1271
1271
1271
1271
1271
1271
1271
1271
1271
1271
1271
1271
1271
1271
1271
1271
1271
1271
1271
1271
1271
1271
1271
1271
1271
1272
1272
1272
1272
1272
1272
1272
1272
1272
1272
1272
1272
1272
1272
1272
1272
1272
1272
1272
1272
1272
1272
1272
1272
1272
1272
1272
1272
1272
1272
1272
1272
1272
1272
1272
1272
1272
1272
1272
1272
1272
1272
1272
1272
1272
1272
1272
1272
1272
1272
1272
1272
1272
1272
1272
1272
1272
1272
1272
1272
1272
1272
1272
1272
1272
1272
1271
1271
1271
1271
1271
1271
1271
1271
1271
1271
1271
1271
1271
1271
1271
1271
1271
1271
1271
1271
1271
1271
1271
1271
1271
1271
1271
1271
1271
1271
1271
1271
1271
1271
1271
1271
1271
1271
1271
1271
1271
1271
1271
1271
1271
1271
1271
1271
1271
1271
1271
1271
1271
1271
1271
1271
1271
1271
1271
1271
1271
1270
1270
1270
1270
1270
1270
1270
1270
1270
1270
1270
1270
1270
1270
1270
1270
1270
1270
1270
1270
1270
1270
1270
1270
1270
1270
1270
1270
1270
1270
1270
1270
1270
1270
1270
1269
1269
1269
1269
1269
1269
1269
1269
1269
1269
1269
1269
1269
1269
1269
1269
1269
1269
1269
1269
1269
1269
1269
1269
1269
1269
1269
1269
1268
1268
1268
1268
1268
1268
1268
1268
1268
1268
1268
1268
1268
1268
1268
1268
1268
1268
1268
1268
1268
1268
1268
1267
1267
1267
1267
1267
1267
1267
1267
1267
1267
1267
1267
1267
1267
1267
1267
1267
1267
1267
1267
1267
1266
1266
1266
1266
1266
1266
1266
1266
1266
1266
1266
1266
1266
1266
1266
1266
1266
1266
1266
1265
1265
1265
1265
1265
1265
1265
1265
1265
1265
1265
1265
1265
1265
1265
1265
1265
1264
1264
1264
1264
1264
1264
1264
1264
1264
1264
1264
1264
1264
1264
1264
1264
1264
1263
1263
1263
1263
1263
1263
1263
1263
1263
1263
1263
1263
1263
1263
1263
1262
1262
1262
1262
1262
1262
1262
1262
1262
1262
1262
1262
1262
1262
1262
1261
1261
1261
1261
1261
1261
1261
1261
1261
1261
1261
1261
1261
1261
1260
1260
1260
1260
1260
1260
1260
1260
1260
1260
1260
1260
1260
1259
1259
1259
1259
1259
1259
1259
1259
1259
1259
1259
1259
1259
1258
1258
1258
1258
1258
1258
1258
1258
1258
1258
1258
1258
1257
1257
1257
1257
1257
1257
1257
1257
1257
1257
1257
1257
1257
1256
1256
1256
1256
1256
1256
1256
1256
1256
1256
1256
1255
1255
1255
1255
1255
1255
1255
1255
1255
1255
1255
1254
1254
1254
1254
1254
1254
1254
1254
1254
1254
1254
1253
1253
1253
1253
1253
1253
1253
1253
1253
1253
1253
1252
1252
1252
1252
1252
1252
1252
1252
1252
1252
1252
1251
1251
1251
1251
1251
1251
1251
1251
1251
1251
1250
1250
1250
1250
1250
1250
1250
1250
1250
1250
1249
1249
1249
1249
1249
1249
1249
1249
1249
1249
1248
1248
1248
1248
1248
1248
1248
1248
1248
1247
1247
1247
1247
1247
1247
1247
1247
1247
1247
1246
1246
1246
1246
1246
1246
1246
1246
1246
1245
1245
1245
1245
1245
1245
1245
1245
1245
1244
1244
1244
1244
1244
1244
1244
1244
1244
1243
1243
1243
1243
1243
1243
1243
1243
1243
1242
1242
1242
1242
1242
1242
1242
1242
1242
1241
1241
1241
1241
1241
1241
1241
1241
1240
1240
1240
1240
1240
1240
1240
1240
1240
1239
1239
1239
1239
1239
1239
1239
1239
1238
1238
1238
1238
1238
1238
1238
1238
1237
1237
1237
1237
1237
1237
1237
1237
1237
1236
1236
1236
1236
1236
1236
1236
1236
1235
1235
1235
1235
1235
1235
1235
1235
1234
1234
1234
1234
1234
1234
1234
1233
1233
1233
1233
1233
1233
1233
1233
1232
1232
1232
1232
1232
1232
1232
1232
1231
1231
1231
1231
1231
1231
1231
1230
1230
1230
1230
1230
1230
1230
1230
1229
1229
1229
1229
1229
1229
1229
1228
1228
1228
1228
1228
1228
1228
1228
1227
1227
1227
1227
1227
1227
1227
1226
1226
1226
1226
1226
1226
1226
1225
1225
1225
1225
1225
1225
1225
1224
1224
1224
1224
1224
1224
1224
1224
1223
1223
1223
1223
1223
1223
1223
1222
1222
1222
1222
1222
1222
1222
1221
1221
1221
1221
1221
1221
1221
1220
1220
1220
1220
1220
1220
1219
1219
1219
1219
1219
1219
1219
1218
1218
1218
1218
1218
1218
1218
1217
1217
1217
1217
1217
1217
1217
1216
1216
1216
1216
1216
1216
1215
1215
1215
1215
1215
1215
1215
1214
1214
1214
1214
1214
1214
1214
1213
1213
1213
1213
1213
1213
1212
1212
1212
1212
1212
1212
1212
1211
1211
1211
1211
1211
1211
1210
1210
1210
1210
1210
1210
1209
1209
1209
1209
1209
1209
1209
1208
1208
1208
1208
1208
1208
1207
1207
1207
1207
1207
1207
1206
1206
1206
1206
1206
1206
1206
1205
1205
1205
1205
1205
1205
1204
1204
1204
1204
1204
1204
1203
1203
1203
1203
1203
1203
1202
1202
1202
1202
1202
1202
1201
1201
1201
1201
1201
1201
1200
1200
1200
1200
1200
1200
1199
1199
1199
1199
1199
1199
1198
1198
1198
1198
1198
1198
1197
1197
1197
1197
1197
1197
1196
1196
1196
1196
1196
1196
1195
1195
1195
1195
1195
1195
1194
1194
1194
1194
1194
1194
1193
1193
1193
1193
1193
1193
1192
1192
1192
1192
1192
1192
1191
1191
1191
1191
1191
1191
1190
1190
1190
1190
1190
1189
1189
1189
1189
1189
1189
1188
1188
1188
1188
1188
1188
1187
1187
1187
1187
1187
1186
1186
1186
1186
1186
1186
1185
1185
1185
1185
1185
1185
1184
1184
1184
1184
1184
1183
1183
1183
1183
1183
1183
1182
1182
1182
1182
1182
1182
1181
1181
1181
1181
1181
1180
1180
1180
1180
1180
1180
1179
1179
1179
1179
1179
1178
1178
1178
1178
1178
1178
1177
1177
1177
1177
1177
1176
1176
1176
1176
1176
1176
1175
1175
1175
1175
1175
1174
1174
1174
1174
1174
1174
1173
1173
1173
1173
1173
1172
1172
1172
1172
1172
1171
1171
1171
1171
1171
1171
1170
1170
1170
1170
1170
1169
1169
1169
1169
1169
1169
1168
1168
1168
1168
1168
1167
1167
1167
1167
1167
1166
1166
1166
1166
