-2961
-2760
-2511
-2227
-1922
-1607
-1297
-1000
-723
-473
-250
-53
120
277
422
563
705
853
1009
1175
1348
1526
1704
1875
2034
2173
2288
2374
2428
2449
2436
2390
2313
2209
2081
1931
1763
1580
1384
1179
967
748
525
299
72
-153
-378
-597
-808
-1009
-1196
-1365
-1513
-1639
-1741
-1818
-1870
-1899
-1908
-1897
-1871
-1832
-1783
-1726
-1664
-1599
-1532
-1465
-1399
-1337
-1280
-1229
-1187
-1155
-1135
-1127
-1131
-1149
-1179
-1220
-1269
-1323
-1380
-1434
-1482
-1519
-1540
-1541
-1518
-1469
-1390
-1279
-1137
-962
-754
-515
-245
52
376
722
1087
1466
1853
2242
2627
3000
3353
3677
3964
4205
4391
4515
4570
4552
4459
4290
4048
3739
3372
2958
2510
2040
1563
1090
632
197
-208
-583
-924
-1233
-1513
-1767
-1999
-2214
-2413
-2601
-2777
-2944
-3099
-3242
-3369
-3475
-3556
-3607
-3622
-3598
-3530
-3418
-3262
-3065
-2830
-2565
-2278
-1977
-1672
-1372
-1085
-818
-577
-364
-181
-28
98
201
285
355
418
479
544
617
703
805
924
1061
1215
1385
1567
1759
1957
2158
2358
2554
2744
2927
3102
3268
3424
3569
3702
3819
3917
3991
4034
4042
4007
3926
3793
3607
3367
3075
2736
2355
1940
1499
1042
577
112
-343
-784
-1203
-1597
-1961
-2295
-2595
-2862
-3097
-3301
-3476
-3623
-3744
-3840
-3913
-3963
-3990
-3992
-3970
-3921
-3846
-3742
-3612
-3456
-3275
-3072
-2851
-2613
-2363
-2104
-1838
-1566
-1292
-1015
-735
-454
-170
116
406
699
994
1290
1585
1876
2158
2428
2679
2906
3105
3270
3397
3484
3529
3532
3494
3417
3305
3160
2987
2792
2577
2349
2111
1868
1624
1383
1147
921
705
503
315
143
-11
-150
-273
-382
-480
-568
-653
-737
-826
-927
-1045
-1184
-1350
-1547
-1777
-2040
-2335
-2658
-3003
-3362
-3725
-4079
-4414
-4715
-4971
-5169
-5300
-5354
-5327
-5215
-5019
-4741
-4386
-3962
-3477
-2941
-2363
-1752
-1118
-469
185
840
1486
2116
2722
3296
3830
4316
4748
5117
5418
5646
5799
5873
5869
5789
5636
5415
5133
4798
4418
4003
3563
3107
2642
2177
1717
1267
831
413
15
-359
-706
-1024
-1308
-1553
-1756
-1912
-2019
-2076
-2082
-2039
-1952
-1827
-1671
-1493
-1302
-1109
-922
-750
-602
-484
-401
-355
-348
-379
-447
-547
-674
-824
-990
-1168
-1351
-1535
-1716
-1890
-2054
-2204
-2338
-2453
-2546
-2615
-2657
-2670
-2652
-2602
-2520
-2406
-2259
-2083
-1877
-1644
-1386
-1105
-803
-481
-143
208
571
940
1312
1679
2035
2373
2684
2960
3196
3386
3528
3622
3668
3670
3634
3564
3465
3344
3204
3048
2877
2695
2499
2291
2070
1836
1591
1334
1070
800
530
264
8
-232
-453
-650
-818
-954
-1059
-1132
-1173
-1186
-1173
-1137
-1081
-1006
-917
-814
-700
-575
-441
-301
-157
-13
127
260
378
477
550
591
595
560
482
363
204
10
-212
-458
-716
-978
-1236
-1480
-1705
-1904
-2073
-2211
-2315
-2387
-2427
-2436
-2417
-2369
-2294
-2192
-2062
-1904
-1718
-1503
-1261
-995
-707
-405
-96
212
510
788
1037
1249
1419
1542
1619
1650
1641
1598
1529
1445
1353
1265
1185
1120
1071
1038
1019
1007
994
973
932
864
761
617
429
197
-76
-386
-725
-1081
-1446
-1805
-2148
-2461
-2734
-2957
-3120
-3218
-3244
-3198
-3079
-2889
-2634
-2321
-1957
-1553
-1121
-671
-214
239
682
1104
1503
1872
2211
2518
2794
3040
3256
3443
3603
3734
3835
3904
3938
3934
3887
3794
3650
3452
3198
2888
2523
2106
1645
1147
624
89
-443
-959
-1445
-1888
-2277
-2605
-2867
-3060
-3184
-3240
-3232
-3163
-3038
-2860
-2636
-2368
-2065
-1732
-1376
-1006
-631
-260
95
427
726
982
1189
1342
1437
1475
1456
1384
1267
1109
921
711
488
259
31
-188
-397
-590
-765
-922
-1058
-1173
-1267
-1340
-1389
-1416
-1419
-1397
-1350
-1277
-1179
-1058
-914
-752
-575
-390
-204
-23
143
289
407
493
542
554
529
471
384
275
152
22
-105
-224
-327
-410
-468
-499
-502
-478
-427
-352
-255
-138
-5
142
301
470
646
828
1012
1197
1380
1557
1727
1885
2029
2155
2262
2347
2409
2446
2459
2446
2407
2342
2249
2130
1982
1805
1599
1365
1103
816
507
181
-156
-499
-841
-1175
-1494
-1791
-2059
-2295
-2492
-2650
-2765
-2840
-2876
-2876
-2845
-2788
-2712
-2620
-2519
-2412
-2301
-2188
-2073
-1955
-1832
-1701
-1561
-1409
-1243
-1061
-863
-650
-423
-184
61
312
561
805
1037
1254
1452
1627
1776
1899
1996
2068
2117
2145
2155
2149
2130
2097
2051
1990
1912
1813
1689
1538
1355
1139
891
610
300
-34
-387
-750
-1115
-1473
-1814
-2129
-2408
-2643
-2829
-2960
-3032
-3045
-2999
-2897
-2743
-2543
-2305
-2037
-1747
-1444
-1135
-829
-531
-246
22
273
504
715
904
1073
1220
1345
1447
1524
1578
1607
1613
1599
1569
1527
1480
1435
1398
1376
1374
1394
1439
1510
1604
1716
1843
1978
2113
2240
2351
2438
2494
2512
2486
2413
2291
2121
1905
1648
1357
1040
707
367
29
-297
-607
-895
-1159
-1395
-1604
-1786
-1941
-2069
-2169
-2242
-2287
-2301
-2284
-2236
-2157
-2047
-1911
-1752
-1574
-1386
-1193
-1004
-826
-667
-534
-432
-363
-330
-332
-364
-423
-502
-592
-685
-773
-848
-905
-937
-942
-918
-864
-782
-675
-545
-396
-232
-56
126
313
499
683
859
1026
1179
1316
1434
1530
1602
1649
1670
1665
1634
1580
1504
1412
1306
1191
1072
954
842
739
648
572
511
466
435
416
404
396
387
370
342
296
228
136
18
-125
-294
-483
-689
-906
-1125
-1341
-1546
-1731
-1891
-2020
-2111
-2163
-2172
-2136
-2057
-1935
-1774
-1576
-1347
-1093
-820
-534
-243
45
325
591
836
1055
1245
1402
1524
1610
1659
1674
1654
1604
1526
1424
1303
1165
1017
861
702
541
382
225
71
-77
-223
-365
-503
-637
-767
-893
-1012
-1124
-1227
-1320
-1402
-1470
-1523
-1561
-1584
-1590
-1581
-1555
-1512
-1452
-1375
-1279
-1162
-1024
-863
-680
-476
-253
-15
232
482
726
955
1160
1331
1461
1543
1570
1540
1452
1305
1104
852
555
223
-135
-510
-890
-1261
-1612
-1929
-2200
-2413
-2559
-2629
-2617
-2520
-2338
-2072
-1728
-1314
-843
-327
217
774
1326
1855
2345
2781
3151
3445
3657
3782
3822
3776
3651
3451
3185
2860
2487
2077
1641
1192
744
310
-97
-466
-786
-1050
-1252
-1389
-1462
-1473
-1427
-1331
-1192
-1019
-820
-604
-378
-149
75
292
495
680
842
977
1080
1148
1178
1166
1113
1017
881
707
501
270
21
-236
-493
-738
-961
-1155
-1310
-1423
-1488
-1506
-1477
-1405
-1296
-1156
-995
-819
-638
-460
-290
-134
3
120
217
293
350
390
415
428
431
427
416
400
378
352
322
288
252
214
177
143
114
91
76
70
76
92
121
161
212
276
350
433
524
621
718
813
900
974
1029
1061
1065
1039
981
891
771
625
457
274
80
-119
-318
-514
-703
-886
-1061
-1229
-1391
-1546
-1696
-1838
-1971
-2092
-2195
-2277
-2331
-2352
-2336
-2277
-2172
-2020
-1821
-1575
-1286
-960
-602
-222
170
565
951
1314
1643
1927
2154
2314
2400
2407
2330
2170
1930
1614
1233
798
326
-166
-658
-1131
-1562
-1934
-2230
-2436
-2541
-2541
-2434
-2223
-1916
-1522
-1054
-526
44
643
1254
1860
2446
2997
3497
3932
4289
4556
4723
4783
4732
4569
4298
3928
3468
2934
2342
1711
1060
405
-234
-845
-1415
-1934
-2395
-2793
-3124
-3389
-3586
-3719
-3790
-3803
-3762
-3672
-3540
-3372
-3175
-2955
-2718
-2472
-2221
-1971
-1726
-1491
-1268
-1060
-867
-690
-528
-379
-243
-115
6
125
244
367
493
626
766
911
1060
1212
1362
1506
1642
1763
1865
1944
1995
2015
2002
1953
1869
1749
1596
1412
1203
974
731
480
229
-15
-247
-462
-656
-824
-967
-1085
-1177
-1246
-1296
-1327
-1343
-1346
-1337
-1317
-1286
-1244
-1190
-1123
-1044
-951
-847
-729
-601
-461
-309
-146
27
215
416
632
863
1109
1369
1640
1918
2198
2473
2732
2967
3165
3315
3407
3430
3378
3247
3037
2751
2398
1990
1540
1064
578
100
-358
-784
-1169
-1507
-1795
-2033
-2223
-2367
-2471
-2540
-2578
-2590
-2580
-2553
-2512
-2458
-2394
-2321
-2240
-2153
-2059
-1958
-1851
-1736
-1612
-1479
-1335
-1179
-1011
-829
-634
-427
-210
13
239
464
681
885
1070
1229
1357
1452
1508
1526
1505
1447
1353
1229
1079
907
721
526
328
132
-54
-229
-388
-525
-640
-729
-792
-829
-842
-832
-802
-757
-700
-636
-569
-504
-443
-390
-346
-312
-288
-272
-262
-256
-251
-242
-228
-206
-173
-131
-78
-17
50
120
190
257
316
366
404
430
443
446
441
431
421
414
416
428
456
501
562
641
734
838
948
1058
1161
1252
1322
1367
1380
1358
1296
1193
1048
862
637
374
79
-241
-582
-935
-1290
-1637
-1965
-2261
-2516
-2717
-2856
-2926
-2920
-2837
-2676
-2440
-2136
-1771
-1355
-899
-414
85
590
1089
1573
2033
2463
2854
3203
3503
3751
3941
4070
4135
4132
4061
3921
3716
3448
3124
2752
2344
1910
1465
1021
594
195
-162
-471
-725
-920
-1060
-1149
-1197
-1216
-1220
-1224
-1242
-1287
-1367
-1488
-1651
-1851
-2080
-2327
-2575
-2811
-3018
-3180
-3286
-3326
-3295
-3189
-3013
-2771
-2474
-2133
-1762
-1374
-985
-608
-252
70
355
598
797
952
1065
1141
1185
1201
1195
1173
1140
1102
1062
1026
998
981
978
993
1026
1079
1150
1238
1340
1452
1567
1680
1783
1870
1934
1969
1972
1939
1867
1759
1613
1435
1227
995
745
483
216
-48
-305
-549
-774
-978
-1157
-1309
-1435
-1536
-1612
-1666
-1702
-1723
-1734
-1737
-1739
-1742
-1750
-1764
-1787
-1818
-1854
-1894
-1931
-1962
-1979
-1977
-1949
-1892
-1800
-1672
-1507
-1307
-1073
-812
-526
-222
95
421
752
1083
1413
1737
2055
2364
2662
2945
3210
3451
3662
3836
3965
4040
4052
3994
3860
3648
3356
2991
2559
2074
1550
1004
455
-78
-582
-1040
-1444
-1787
-2066
-2282
-2440
-2546
-2608
-2633
-2630
-2606
-2566
-2515
-2456
-2392
-2322
-2248
-2169
-2084
-1995
-1900
-1801
-1698
-1592
-1485
-1377
-1271
-1166
-1064
-966
-870
-779
-691
-607
-528
-452
-382
-317
-257
-202
-153
-107
-65
-24
16
58
104
155
211
273
342
417
497
579
663
745
824
897
963
1020
1070
1113
1151
1186
1222
1262
1308
1364
1430
1509
1598
1697
1801
1907
2007
2097
2168
2212
2222
2191
2114
1987
1808
1577
1298
975
616
232
-167
-569
-962
-1331
-1665
-1953
-2184
-2351
-2448
-2472
-2423
-2301
-2112
-1864
-1566
-1230
-868
-494
-123
230
555
837
1067
1237
1340
1375
1339
1236
1069
845
572
262
-75
-427
-779
-1119
-1432
-1706
-1930
-2094
-2190
-2216
-2168
-2050
-1866
-1624
-1332
-1003
-649
-282
85
442
779
1087
1360
1593
1784
1933
2040
2109
2143
2146
2124
2081
2022
1951
1873
1789
1703
1615
1525
1435
1343
1247
1147
1041
926
800
659
502
325
127
-92
-333
-592
-866
-1149
-1432
-1708
-1966
-2198
-2394
-2548
-2654
-2707
-2706
-2651
-2547
-2396
-2205
-1983
-1738
-1478
-1214
-955
-709
-485
-289
-126
1
92
147
171
166
139
95
43
-11
-63
-106
-135
-147
-141
-116
-72
-11
65
153
251
355
461
568
674
775
872
963
1048
1124
1193
1252
1302
1341
1368
1382
1382
1366
1334
1285
1219
1137
1039
928
807
678
545
412
282
161
52
-42
-119
-179
-219
-241
-247
-239
-219
-193
-164
-137
-116
-103
-104
-119
-150
-197
-261
-339
-429
-530
-636
-746
-855
-960
-1059
-1149
-1227
-1291
-1342
-1379
-1401
-1409
-1404
-1387
-1360
-1322
-1276
-1221
-1158
-1087
-1008
-920
-823
-717
-601
-477
-345
-205
-60
88
240
393
544
692
836
975
1106
1229
1341
1441
1527
1595
1641
1661
1652
1609
1527
1406
1243
1039
796
521
218
-101
-430
-757
-1071
-1361
-1617
-1828
-1987
-2087
-2124
-2094
-1998
-1838
-1618
-1347
-1033
-688
