1784
1783
1783
1783
1783
1783
1783
1783
1783
1783
1782
1782
1782
1782
1782
1782
1782
1782
1782
1781
1781
1781
1781
1781
1781
1781
1781
1780
1780
1780
1780
1780
1780
1780
1780
1779
1779
1779
1779
1779
1779
1779
1779
1778
1778
1778
1778
1778
1778
1778
1778
1777
1777
1777
1777
1777
1777
1777
1776
1776
1776
1776
1776
1776
1776
1775
1775
1775
1775
1775
1775
1775
1774
1774
1774
1774
1774
1774
1774
1773
1773
1773
1773
1773
1773
1773
1772
1772
1772
1772
1772
1772
1772
1771
1771
1771
1771
1771
1771
1770
1770
1770
1770
1770
1770
1770
1769
1769
1769
1769
1769
1769
1768
1768
1768
1768
1768
1768
1767
1767
1767
1767
1767
1767
1766
1766
1766
1766
1766
1766
1765
1765
1765
1765
1765
1765
1764
1764
1764
1764
1764
1764
1763
1763
1763
1763
1763
1763
1762
1762
1762
1762
1762
1762
1761
1761
1761
1761
1761
1760
1760
1760
1760
1760
1760
1759
1759
1759
1759
1759
1758
1758
1758
1758
1758
1757
1757
1757
1757
1757
1757
1756
1756
1756
1756
1756
1755
1755
1755
1755
1755
1754
1754
1754
1754
1754
1753
1753
1753
1753
1753
1752
1752
1752
1752
1752
1751
1751
1751
1751
1751
1750
1750
1750
1750
1750
1749
1749
1749
1749
1749
1748
1748
1748
1748
1748
1747
1747
1747
1747
1747
1746
1746
1746
1746
1745
1745
1745
1745
1745
1744
1744
1744
1744
1744
1743
1743
1743
1743
1742
1742
1742
1742
1742
1741
1741
1741
1741
1740
1740
1740
1740
1740
1739
1739
1739
1739
1738
1738
1738
1738
1738
1737
1737
1737
1737
1736
1736
1736
1736
1735
1735
1735
1735
1735
1734
1734
1734
1734
1733
1733
1733
1733
1732
1732
1732
1732
1731
1731
1731
1731
1731
1730
1730
1730
1730
1729
1729
1729
1729
1728
1728
1728
1728
1727
1727
1727
1727
1726
1726
1726
1726
1725
1725
1725
1725
1724
1724
1724
1724
1723
1723
1723
1723
1722
1722
1722
1722
1721
1721
1721
1721
1720
1720
1720
1720
1719
1719
1719
1719
1718
1718
1718
1718
1717
1717
1717
1716
1716
1716
1716
1715
1715
1715
1715
1714
1714
1714
1714
1713
1713
1713
1712
1712
1712
1712
1711
1711
1711
1711
1710
1710
1710
1710
1709
1709
1709
1708
1708
1708
1708
1707
1707
1707
1707
1706
1706
1706
1705
1705
1705
1705
1704
1704
1704
1703
1703
1703
1703
1702
1702
1702
1701
1701
1701
1701
1700
1700
1700
1700
1699
1699
1699
1698
1698
1698
1698
1697
1697
1697
1696
1696
1696
1695
1695
1695
1695
1694
1694
1694
1693
1693
1693
1693
1692
1692
1692
1691
1691
1691
1691
1690
1690
1690
1689
1689
1689
1688
1688
1688
1688
1687
1687
1687
1686
1686
1686
1685
1685
1685
1685
1684
1684
1684
1683
1683
1683
1682
1682
1682
1681
1681
1681
1681
1680
1680
1680
1679
1679
1679
1678
1678
1678
1677
1677
1677
1677
1676
1676
1676
1675
1675
1675
1674
1674
1674
1673
1673
1673
1672
1672
1672
1671
1671
1671
1671
1670
1670
1670
1669
1669
1669
1668
1668
1668
1667
1667
1667
1666
1666
1666
1665
1665
1665
1664
1664
1664
1663
1663
1663
1662
1662
1662
1662
1661
1661
1661
1660
1660
1660
1659
1659
1659
1658
1658
1658
1657
1657
1657
1656
1656
1656
1655
1655
1655
1654
1654
1654
1653
1653
1653
1652
1652
1652
1651
1651
1651
1650
1650
1650
1649
1649
1649
1648
1648
1647
1647
1647
1646
1646
1646
1645
1645
1645
1644
1644
1644
1643
1643
1643
1642
1642
1642
1641
1641
1641
1640
1640
1640
1639
1639
1639
1638
1638
1637
1637
1637
1636
1636
1636
1635
1635
1635
1634
1634
1634
1633
1633
1633
1632
1632
1632
1631
1631
1630
1630
1630
1629
1629
1629
1628
1628
1628
1627
1627
1627
1626
1626
1625
1625
1625
1624
1624
1624
1623
1623
1623
1622
1622
1621
1621
1621
1620
1620
1620
1619
1619
1619
1618
1618
1617
1617
1617
1616
1616
1616
1615
1615
1615
1614
1614
1613
1613
1613
1612
1612
1612
1611
1611
1611
1610
1610
1609
1609
1609
1608
1608
1608
1607
1607
1606
1606
1606
1605
1605
1605
1604
1604
1603
1603
1603
1602
1602
1602
1601
1601
1600
1600
1600
1599
1599
1599
1598
1598
1597
1597
1597
1596
1596
1596
1595
1595
1594
1594
1594
1593
1593
1592
1592
1592
1591
1591
1591
1590
1590
1589
1589
1589
1588
1588
1587
1587
1587
1586
1586
1586
1585
1585
1584
1584
1584
1583
1583
1582
1582
1582
1581
1581
1580
1580
1580
1579
1579
1579
1578
1578
1577
1577
1577
1576
1576
1575
1575
1575
1574
1574
1573
1573
1573
1572
1572
1571
1571
1571
1570
1570
1569
1569
1569
1568
1568
1568
1567
1567
1566
1566
1566
1565
1565
1564
1564
1564
1563
1563
1562
1562
1562
1561
1561
1560
1560
1560
1559
1559
1558
1558
1558
1557
1557
1556
1556
1555
1555
1555
1554
1554
1553
1553
1553
1552
1552
1551
1551
1551
1550
1550
1549
1549
1549
1548
1548
1547
1547
1547
1546
1546
1545
1545
1545
1544
1544
1543
1543
1542
1542
1542
1541
1541
1540
1540
1540
1539
1539
1538
1538
1538
1537
1537
1536
1536
1535
1535
1535
1534
1534
1533
1533
1533
1532
1532
1531
1531
1531
1530
1530
1529
1529
1528
1528
1528
1527
1527
1526
1526
1526
1525
1525
1524
1524
1523
1523
1523
1522
1522
1521
1521
1520
1520
1520
1519
1519
1518
1518
1518
1517
1517
1516
1516
1515
1515
1515
1514
1514
1513
1513
1512
1512
1512
1511
1511
1510
1510
1510
1509
1509
1508
1508
1507
1507
1507
1506
1506
1505
1505
1504
1504
1504
1503
1503
1502
1502
1501
1501
1501
1500
1500
1499
1499
1498
1498
1498
1497
1497
1496
1496
1495
1495
1495
1494
1494
1493
1493
1492
1492
1492
1491
1491
1490
1490
1489
1489
1489
1488
1488
1487
1487
1486
1486
1486
1485
1485
1484
1484
1483
1483
1483
1482
1482
1481
1481
1480
1480
1479
1479
1479
1478
1478
1477
1477
1476
1476
1476
1475
1475
1474
1474
1473
1473
1473
1472
1472
1471
1471
1470
1470
1469
1469
1469
1468
1468
1467
1467
1466
1466
1466
1465
1465
1464
1464
1463
1463
1462
1462
1462
1461
1461
1460
1460
1459
1459
1459
1458
1458
1457
1457
1456
1456
1455
1455
1455
1454
1454
1453
1453
1452
1452
1451
1451
1451
1450
1450
1449
1449
1448
1448
1447
1447
1447
1446
1446
1445
1445
1444
1444
1443
1443
1443
1442
1442
1441
1441
1440
1440
1439
1439
1439
1438
1438
1437
1437
1436
1436
1435
1435
1435
1434
1434
1433
1433
1432
1432
1431
1431
1431
1430
1430
1429
1429
1428
1428
1427
1427
1427
1426
1426
1425
1425
1424
1424
1423
1423
1423
1422
1422
1421
1421
1420
1420
1419
1419
1419
1418
1418
1417
1417
1416
1416
1415
1415
1414
1414
1414
1413
1413
1412
1412
1411
1411
1410
1410
1410
1409
1409
1408
1408
1407
1407
1406
1406
1405
1405
1405
1404
1404
1403
1403
1402
1402
1401
1401
1401
1400
1400
1399
1399
1398
1398
1397
1397
1396
1396
1396
1395
1395
1394
1394
1393
1393
1392
1392
1392
1391
1391
1390
1390
1389
1389
1388
1388
1387
1387
1387
1386
1386
1385
1385
1384
1384
1383
1383
1382
1382
1382
1381
1381
1380
1380
1379
1379
1378
1378
1377
1377
1377
1376
1376
1375
1375
1374
1374
1373
1373
1372
1372
1372
1371
1371
1370
1370
1369
1369
1368
1368
1367
1367
1367
1366
1366
1365
1365
1364
1364
1363
1363
1362
1362
1362
1361
1361
1360
1360
1359
1359
1358
1358
1357
1357
1357
1356
1356
1355
1355
1354
1354
1353
1353
1352
1352
1352
1351
1351
1350
1350
1349
1349
1348
1348
1347
1347
1347
1346
1346
1345
1345
1344
1344
1343
1343
1342
1342
1342
1341
1341
1340
1340
1339
1339
1338
1338
1337
1337
1337
1336
1336
1335
1335
1334
1334
1333
1333
1332
1332
1332
1331
1331
1330
1330
1329
1329
1328
1328
1327
1327
1327
1326
1326
1325
1325
1324
1324
1323
1323
1322
1322
1322
1321
1321
1320
1320
1319
1319
1318
1318
1317
1317
1317
1316
1316
1315
1315
1314
1314
1313
1313
1312
1312
1312
1311
1311
1310
1310
1309
1309
1308
1308
1307
1307
1307
1306
1306
1305
1305
1304
1304
1303
1303
1302
1302
1302
1301
1301
1300
1300
1299
1299
1298
1298
1297
1297
1297
1296
1296
1295
1295
1294
1294
1293
1293
1292
1292
1292
1291
1291
1290
1290
1289
1289
1288
1288
1288
1287
1287
1286
1286
1285
1285
1284
1284
1283
1283
1283
1282
1282
1281
1281
1280
1280
1279
1279
1278
1278
1278
1277
1277
1276
1276
1275
1275
1274
1274
1273
1273
1273
1272
1272
1271
1271
1270
1270
1269
1269
1269
1268
1268
1267
1267
1266
1266
1265
1265
1264
1264
1264
1263
1263
1262
1262
1261
1261
1260
1260
1260
1259
1259
1258
1258
1257
1257
1256
1256
1255
1255
1255
1254
1254
1253
1253
1252
1252
1251
1251
1251
1250
1250
1249
1249
1248
1248
1247
1247
1247
1246
1246
1245
1245
1244
1244
1243
1243
1242
1242
1242
1241
1241
1240
1240
1239
1239
1238
1238
1238
1237
1237
1236
1236
1235
1235
1234
1234
1234
1233
1233
1232
1232
1231
1231
1230
1230
1230
1229
1229
1228
1228
1227
1227
1226
1226
1226
1225
1225
1224
1224
1223
1223
1222
1222
1222
1221
1221
1220
1220
1219
1219
1218
1218
1218
1217
1217
1216
1216
1215
1215
1214
1214
1214
1213
1213
1212
1212
1211
1211
1210
1210
1210
1209
1209
1208
1208
1207
1207
1207
1206
1206
1205
1205
1204
1204
1203
1203
1203
1202
1202
1201
1201
1200
1200
1200
1199
1199
1198
1198
1197
1197
1196
1196
1196
1195
1195
1194
1194
1193
1193
1193
1192
1192
1191
1191
1190
1190
1189
1189
1189
1188
1188
1187
1187
1186
1186
1186
1185
1185
1184
1184
1183
1183
1182
1182
1182
1181
1181
1180
1180
1179
1179
1179
1178
1178
1177
1177
1176
1176
1176
1175
1175
1174
1174
1173
1173
1173
1172
1172
1171
1171
1170
1170
1170
1169
1169
1168
1168
1167
1167
1167
1166
1166
1165
1165
1164
1164
1164
1163
1163
1162
1162
1161
1161
1161
1160
1160
1159
1159
1158
1158
1158
1157
1157
1156
1156
1155
1155
1155
1154
1154
1153
1153
1152
1152
1152
1151
1151
1150
1150
1149
1149
1149
1148
1148
1147
1147
1146
1146
1146
1145
1145
1144
1144
1144
1143
1143
1142
1142
1141
1141
1141
1140
1140
1139
1139
1138
1138
1138
1137
1137
1136
1136
1136
1135
1135
1134
1134
1133
1133
1133
1132
1132
1131
1131
1131
1130
1130
1129
1129
1128
1128
1128
1127
1127
1126
1126
1126
1125
1125
1124
1124
1123
1123
1123
1122
1122
1121
1121
1121
1120
1120
1119
1119
1118
1118
1118
1117
1117
1116
1116
1116
1115
1115
1114
1114
1114
1113
1113
1112
1112
1111
1111
1111
1110
1110
1109
1109
1109
1108
1108
1107
1107
1107
1106
1106
1105
1105
1105
1104
1104
1103
1103
1103
1102
1102
1101
1101
1100
1100
1100
1099
1099
1098
1098
1098
1097
1097
1096
1096
1096
1095
1095
1094
1094
1094
1093
1093
1092
1092
1092
1091
1091
1090
1090
1090
1089
1089
1088
1088
1088
1087
1087
1086
1086
1086
1085
1085
1084
1084
1084
1083
1083
1082
1082
1082
1081
1081
1080
1080
1080
1079
1079
1078
1078
1078
1077
1077
1076
1076
1076
1075
1075
1075
1074
1074
1073
1073
1073
1072
1072
1071
1071
1071
1070
1070
1069
1069
1069
1068
1068
1067
1067
1067
1066
1066
1066
1065
1065
1064
1064
1064
1063
1063
1062
1062
1062
1061
1061
1060
1060
1060
1059
1059
1059
1058
1058
1057
1057
1057
1056
1056
1055
1055
1055
1054
1054
1054
1053
1053
1052
1052
1052
1051
1051
1050
1050
1050
